##TITLE= LDL-016_1mM
##JCAMP-DX= 4.24
##DATA TYPE= FL SPECTRUM
##ORIGIN= 
##OWNER= shp
##DATE= 16:32:23, 10/16/2018
##SAMPLE DESCRIPTION= 20181016_LDL-016_1mM_THF_Ex_550nm
##SPECTROMETER/DATA SYSTEM= Hitachi Model F-2500 FL Spectrophotometer;
Serial Number: ;
ROM Version: 4000 01;
##INSTRUMENT PARAMETERS= Scan mode= Excitation;
Data mode= Fluorescence;
EM WL= 550.0 nm;
Scan speed= 1500 nm/min;
Delay= 0 s;
EX Slit= 10.0 nm;
EM Slit= 10.0 nm;
PMT Voltage= 400 V;
Response= 0.08 s;
Corrected spectra= Off;
##DELTAX= 0.5
##XLABEL= nm
##YLABEL= Data
##XUNITS= NANOMETERS
##YUNITS= ARBITRARY UNITS
##XFACTOR= 1.0
##YFACTOR= 1.0
##FIRSTX= 220.0
##LASTX= 800.0
##NPOINTS= 1161
##XYDATA= (X++(Y..Y))
220.0 0.000
220.5 0.000
221.0 0.000
221.5 0.000
222.0 0.000
222.5 0.000
223.0 0.000
223.5 0.000
224.0 0.000
224.5 0.000
225.0 0.000
225.5 0.000
226.0 0.000
226.5 0.000
227.0 0.000
227.5 0.000
228.0 0.000
228.5 0.000
229.0 0.000
229.5 0.000
230.0 0.000
230.5 0.000
231.0 0.000
231.5 0.000
232.0 0.000
232.5 0.000
233.0 0.000
233.5 0.000
234.0 0.000
234.5 0.000
235.0 0.000
235.5 0.000
236.0 0.000
236.5 0.000
237.0 0.000
237.5 0.000
238.0 0.000
238.5 0.000
239.0 0.000
239.5 0.000
240.0 0.000
240.5 0.000
241.0 0.000
241.5 0.000
242.0 0.000
242.5 0.000
243.0 0.000
243.5 0.000
244.0 0.000
244.5 0.000
245.0 0.000
245.5 0.000
246.0 0.000
246.5 0.000
247.0 0.000
247.5 0.000
248.0 0.000
248.5 0.000
249.0 0.000
249.5 0.000
250.0 0.000
250.5 0.000
251.0 0.000
251.5 0.000
252.0 0.000
252.5 0.000
253.0 0.000
253.5 0.000
254.0 0.000
254.5 0.000
255.0 0.000
255.5 0.000
256.0 0.000
256.5 0.000
257.0 0.000
257.5 0.000
258.0 0.000
258.5 0.000
259.0 0.000
259.5 0.000
260.0 0.000
260.5 0.000
261.0 0.000
261.5 0.000
262.0 0.000
262.5 0.000
263.0 0.000
263.5 0.000
264.0 0.000
264.5 0.000
265.0 0.000
265.5 0.000
266.0 0.000
266.5 0.000
267.0 0.000
267.5 0.000
268.0 0.000
268.5 0.000
269.0 0.000
269.5 0.000
270.0 0.000
270.5 0.000
271.0 0.000
271.5 0.000
272.0 0.000
272.5 0.000
273.0 0.000
273.5 0.000
274.0 0.000
274.5 0.000
275.0 0.000
275.5 0.000
276.0 0.000
276.5 0.000
277.0 0.000
277.5 0.000
278.0 0.000
278.5 0.000
279.0 0.000
279.5 0.000
280.0 0.000
280.5 0.000
281.0 0.000
281.5 0.000
282.0 0.000
282.5 0.000
283.0 0.000
283.5 0.000
284.0 0.000
284.5 0.000
285.0 0.000
285.5 0.000
286.0 0.000
286.5 0.000
287.0 0.000
287.5 0.000
288.0 0.000
288.5 0.000
289.0 0.000
289.5 0.000
290.0 0.000
290.5 0.000
291.0 0.000
291.5 0.000
292.0 0.000
292.5 0.000
293.0 0.000
293.5 0.000
294.0 0.000
294.5 0.000
295.0 0.000
295.5 0.000
296.0 0.000
296.5 0.000
297.0 0.000
297.5 0.000
298.0 0.000
298.5 0.000
299.0 0.000
299.5 0.000
300.0 0.000
300.5 0.000
301.0 0.000
301.5 0.000
302.0 0.000
302.5 0.000
303.0 0.000
303.5 0.000
304.0 0.000
304.5 0.000
305.0 0.000
305.5 0.000
306.0 0.000
306.5 0.000
307.0 0.000
307.5 0.000
308.0 0.000
308.5 0.000
309.0 0.000
309.5 0.000
310.0 0.000
310.5 0.000
311.0 0.000
311.5 0.000
312.0 0.000
312.5 0.000
313.0 0.000
313.5 0.000
314.0 0.000
314.5 0.000
315.0 0.000
315.5 0.000
316.0 0.000
316.5 0.000
317.0 0.000
317.5 0.000
318.0 0.000
318.5 0.000
319.0 0.000
319.5 0.000
320.0 0.000
320.5 0.000
321.0 0.000
321.5 0.000
322.0 0.000
322.5 0.000
323.0 0.000
323.5 0.000
324.0 0.000
324.5 0.000
325.0 0.000
325.5 0.000
326.0 0.000
326.5 0.000
327.0 0.000
327.5 0.000
328.0 0.000
328.5 0.000
329.0 0.000
329.5 0.000
330.0 0.000
330.5 0.000
331.0 0.000
331.5 0.000
332.0 0.000
332.5 0.000
333.0 0.000
333.5 0.000
334.0 0.000
334.5 0.000
335.0 0.000
335.5 0.000
336.0 0.000
336.5 0.000
337.0 0.000
337.5 0.000
338.0 0.003
338.5 0.005
339.0 0.009
339.5 0.013
340.0 0.022
340.5 0.025
341.0 0.032
341.5 0.039
342.0 0.049
342.5 0.059
343.0 0.073
343.5 0.089
344.0 0.110
344.5 0.129
345.0 0.156
345.5 0.183
346.0 0.215
346.5 0.250
347.0 0.293
347.5 0.343
348.0 0.402
348.5 0.465
349.0 0.538
349.5 0.623
350.0 0.716
350.5 0.816
351.0 0.935
351.5 1.063
352.0 1.193
352.5 1.345
353.0 1.513
353.5 1.701
354.0 1.903
354.5 2.123
355.0 2.345
355.5 2.578
356.0 2.820
356.5 3.087
357.0 3.355
357.5 3.625
358.0 3.896
358.5 4.183
359.0 4.471
359.5 4.765
360.0 5.061
360.5 5.352
361.0 5.651
361.5 5.949
362.0 6.238
362.5 6.526
363.0 6.785
363.5 7.029
364.0 7.269
364.5 7.493
365.0 7.697
365.5 7.878
366.0 8.038
366.5 8.179
367.0 8.324
367.5 8.454
368.0 8.554
368.5 8.627
369.0 8.670
369.5 8.701
370.0 8.714
370.5 8.703
371.0 8.675
371.5 8.636
372.0 8.596
372.5 8.558
373.0 8.501
373.5 8.410
374.0 8.312
374.5 8.212
375.0 8.105
375.5 7.977
376.0 7.862
376.5 7.733
377.0 7.599
377.5 7.471
378.0 7.346
378.5 7.224
379.0 7.099
379.5 6.968
380.0 6.827
380.5 6.683
381.0 6.556
381.5 6.422
382.0 6.294
382.5 6.176
383.0 6.052
383.5 5.933
384.0 5.821
384.5 5.701
385.0 5.580
385.5 5.455
386.0 5.331
386.5 5.214
387.0 5.109
387.5 5.009
388.0 4.901
388.5 4.786
389.0 4.679
389.5 4.571
390.0 4.473
390.5 4.375
391.0 4.281
391.5 4.195
392.0 4.107
392.5 4.023
393.0 3.949
393.5 3.878
394.0 3.804
394.5 3.722
395.0 3.646
395.5 3.571
396.0 3.506
396.5 3.444
397.0 3.376
397.5 3.310
398.0 3.246
398.5 3.181
399.0 3.122
399.5 3.065
400.0 3.005
400.5 2.943
401.0 2.885
401.5 2.834
402.0 2.786
402.5 2.736
403.0 2.692
403.5 2.647
404.0 2.601
404.5 2.556
405.0 2.512
405.5 2.471
406.0 2.435
406.5 2.394
407.0 2.352
407.5 2.313
408.0 2.286
408.5 2.260
409.0 2.228
409.5 2.198
410.0 2.170
410.5 2.140
411.0 2.113
411.5 2.086
412.0 2.059
412.5 2.036
413.0 2.013
413.5 1.990
414.0 1.969
414.5 1.956
415.0 1.946
415.5 1.932
416.0 1.914
416.5 1.900
417.0 1.892
417.5 1.884
418.0 1.869
418.5 1.852
419.0 1.836
419.5 1.822
420.0 1.822
420.5 1.824
421.0 1.822
421.5 1.824
422.0 1.828
422.5 1.824
423.0 1.818
423.5 1.815
424.0 1.814
424.5 1.813
425.0 1.818
425.5 1.828
426.0 1.841
426.5 1.850
427.0 1.859
427.5 1.866
428.0 1.878
428.5 1.889
429.0 1.905
429.5 1.925
430.0 1.947
430.5 1.966
431.0 1.985
431.5 2.004
432.0 2.027
432.5 2.051
433.0 2.074
433.5 2.098
434.0 2.127
434.5 2.159
435.0 2.196
435.5 2.234
436.0 2.268
436.5 2.306
437.0 2.348
437.5 2.394
438.0 2.443
438.5 2.488
439.0 2.534
439.5 2.583
440.0 2.633
440.5 2.693
441.0 2.756
441.5 2.823
442.0 2.892
442.5 2.966
443.0 3.045
443.5 3.121
444.0 3.192
444.5 3.265
445.0 3.337
445.5 3.420
446.0 3.508
446.5 3.607
447.0 3.703
447.5 3.791
448.0 3.873
448.5 3.965
449.0 4.066
449.5 4.165
450.0 4.260
450.5 4.358
451.0 4.467
451.5 4.577
452.0 4.687
452.5 4.799
453.0 4.908
453.5 5.019
454.0 5.128
454.5 5.231
455.0 5.333
455.5 5.438
456.0 5.543
456.5 5.640
457.0 5.731
457.5 5.817
458.0 5.895
458.5 5.983
459.0 6.074
459.5 6.156
460.0 6.227
460.5 6.290
461.0 6.364
461.5 6.437
462.0 6.493
462.5 6.543
463.0 6.595
463.5 6.637
464.0 6.671
464.5 6.701
465.0 6.715
465.5 6.731
466.0 6.751
466.5 6.754
467.0 6.758
467.5 6.755
468.0 6.744
468.5 6.727
469.0 6.697
469.5 6.654
470.0 6.599
470.5 6.533
471.0 6.449
471.5 6.361
472.0 6.274
472.5 6.179
473.0 6.075
473.5 5.956
474.0 5.834
474.5 5.709
475.0 5.579
475.5 5.449
476.0 5.315
476.5 5.183
477.0 5.056
477.5 4.925
478.0 4.797
478.5 4.674
479.0 4.551
479.5 4.429
480.0 4.311
480.5 4.199
481.0 4.093
481.5 3.987
482.0 3.888
482.5 3.792
483.0 3.699
483.5 3.598
484.0 3.500
484.5 3.412
485.0 3.327
485.5 3.244
486.0 3.161
486.5 3.082
487.0 3.009
487.5 2.939
488.0 2.866
488.5 2.796
489.0 2.729
489.5 2.662
490.0 2.593
490.5 2.528
491.0 2.463
491.5 2.404
492.0 2.346
492.5 2.291
493.0 2.238
493.5 2.181
494.0 2.130
494.5 2.082
495.0 2.034
495.5 1.985
496.0 1.940
496.5 1.898
497.0 1.861
497.5 1.819
498.0 1.775
498.5 1.734
499.0 1.697
499.5 1.658
500.0 1.620
500.5 1.583
501.0 1.548
501.5 1.511
502.0 1.475
502.5 1.441
503.0 1.408
503.5 1.377
504.0 1.347
504.5 1.318
505.0 1.287
505.5 1.259
506.0 1.233
506.5 1.205
507.0 1.174
507.5 1.144
508.0 1.118
508.5 1.093
509.0 1.072
509.5 1.051
510.0 1.031
510.5 1.007
511.0 0.982
511.5 0.959
512.0 0.937
512.5 0.914
513.0 0.894
513.5 0.874
514.0 0.855
514.5 0.837
515.0 0.818
515.5 0.804
516.0 0.789
516.5 0.773
517.0 0.757
517.5 0.743
518.0 0.728
518.5 0.711
519.0 0.697
519.5 0.683
520.0 0.672
520.5 0.661
521.0 0.652
521.5 0.639
522.0 0.629
522.5 0.620
523.0 0.610
523.5 0.600
524.0 0.586
524.5 0.575
525.0 0.564
525.5 0.557
526.0 0.548
526.5 0.542
527.0 0.531
527.5 0.520
528.0 0.512
528.5 0.504
529.0 0.499
529.5 0.495
530.0 0.491
530.5 0.489
531.0 0.493
531.5 0.504
532.0 0.527
532.5 0.568
533.0 0.634
533.5 0.736
534.0 0.881
534.5 1.081
535.0 1.347
535.5 1.695
536.0 2.122
536.5 2.644
537.0 3.289
537.5 4.087
538.0 5.010
538.5 6.068
539.0 7.273
539.5 8.605
540.0 10.02
540.5 11.60
541.0 13.35
541.5 15.30
542.0 18.38
542.5 21.04
543.0 23.54
543.5 25.98
544.0 28.37
544.5 30.60
545.0 32.84
545.5 34.95
546.0 36.97
546.5 38.70
547.0 40.12
547.5 41.17
548.0 42.05
548.5 42.74
549.0 42.99
549.5 42.87
550.0 42.38
550.5 41.70
551.0 40.72
551.5 39.61
552.0 38.39
552.5 36.83
553.0 34.90
553.5 32.82
554.0 30.64
554.5 28.41
555.0 26.15
555.5 23.82
556.0 21.43
556.5 19.11
557.0 16.86
557.5 15.65
558.0 14.05
558.5 12.38
559.0 10.75
559.5 9.210
560.0 7.823
560.5 6.578
561.0 5.476
561.5 4.491
562.0 3.638
562.5 2.906
563.0 2.289
563.5 1.771
564.0 1.354
564.5 1.020
565.0 0.760
565.5 0.556
566.0 0.401
566.5 0.285
567.0 0.198
567.5 0.138
568.0 0.098
568.5 0.071
569.0 0.055
569.5 0.044
570.0 0.038
570.5 0.032
571.0 0.029
571.5 0.025
572.0 0.022
572.5 0.019
573.0 0.017
573.5 0.015
574.0 0.013
574.5 0.012
575.0 0.012
575.5 0.010
576.0 0.009
576.5 0.006
577.0 0.005
577.5 0.002
578.0 0.002
578.5 0.001
579.0 0.001
579.5 0.000
580.0 0.000
580.5 0.000
581.0 0.000
581.5 0.000
582.0 0.000
582.5 0.000
583.0 0.000
583.5 0.000
584.0 0.000
584.5 0.000
585.0 0.000
585.5 0.000
586.0 0.000
586.5 0.000
587.0 0.000
587.5 0.000
588.0 0.000
588.5 0.000
589.0 0.000
589.5 0.000
590.0 0.000
590.5 0.000
591.0 0.000
591.5 0.000
592.0 0.000
592.5 0.000
593.0 0.000
593.5 0.000
594.0 0.000
594.5 0.000
595.0 0.000
595.5 0.000
596.0 0.000
596.5 0.000
597.0 0.000
597.5 0.000
598.0 0.000
598.5 0.000
599.0 0.000
599.5 0.000
600.0 0.000
600.5 0.000
601.0 0.000
601.5 0.000
602.0 0.000
602.5 0.000
603.0 0.000
603.5 0.000
604.0 0.000
604.5 0.000
605.0 0.000
605.5 0.000
606.0 0.000
606.5 0.000
607.0 0.000
607.5 0.000
608.0 0.000
608.5 0.000
609.0 0.000
609.5 0.000
610.0 0.000
610.5 0.000
611.0 0.000
611.5 0.000
612.0 0.000
612.5 0.000
613.0 0.000
613.5 0.000
614.0 0.000
614.5 0.000
615.0 0.000
615.5 0.000
616.0 0.000
616.5 0.000
617.0 0.000
617.5 0.000
618.0 0.000
618.5 0.000
619.0 0.000
619.5 0.000
620.0 0.000
620.5 0.000
621.0 0.000
621.5 0.000
622.0 0.000
622.5 0.000
623.0 0.000
623.5 0.000
624.0 0.000
624.5 0.000
625.0 0.000
625.5 0.000
626.0 0.000
626.5 0.000
627.0 0.000
627.5 0.000
628.0 0.000
628.5 0.000
629.0 0.000
629.5 0.000
630.0 0.000
630.5 0.000
631.0 0.000
631.5 0.000
632.0 0.000
632.5 0.000
633.0 0.000
633.5 0.000
634.0 0.000
634.5 0.000
635.0 0.000
635.5 0.000
636.0 0.000
636.5 0.000
637.0 0.000
637.5 0.000
638.0 0.000
638.5 0.000
639.0 0.000
639.5 0.000
640.0 0.000
640.5 0.000
641.0 0.000
641.5 0.000
642.0 0.000
642.5 0.000
643.0 0.000
643.5 0.000
644.0 0.000
644.5 0.000
645.0 0.000
645.5 0.000
646.0 0.000
646.5 0.000
647.0 0.000
647.5 0.000
648.0 0.000
648.5 0.000
649.0 0.000
649.5 0.000
650.0 0.000
650.5 0.000
651.0 0.000
651.5 0.000
652.0 0.000
652.5 0.000
653.0 0.000
653.5 0.000
654.0 0.000
654.5 0.000
655.0 0.000
655.5 0.000
656.0 0.000
656.5 0.000
657.0 0.000
657.5 0.000
658.0 0.000
658.5 0.000
659.0 0.000
659.5 0.000
660.0 0.000
660.5 0.000
661.0 0.000
661.5 0.000
662.0 0.000
662.5 0.000
663.0 0.000
663.5 0.000
664.0 0.000
664.5 0.000
665.0 0.000
665.5 0.000
666.0 0.000
666.5 0.000
667.0 0.000
667.5 0.000
668.0 0.000
668.5 0.000
669.0 0.000
669.5 0.000
670.0 0.000
670.5 0.000
671.0 0.000
671.5 0.000
672.0 0.000
672.5 0.000
673.0 0.000
673.5 0.000
674.0 0.000
674.5 0.000
675.0 0.000
675.5 0.000
676.0 0.000
676.5 0.000
677.0 0.000
677.5 0.000
678.0 0.000
678.5 0.000
679.0 0.000
679.5 0.000
680.0 0.000
680.5 0.000
681.0 0.000
681.5 0.000
682.0 0.000
682.5 0.000
683.0 0.000
683.5 0.000
684.0 0.000
684.5 0.000
685.0 0.000
685.5 0.000
686.0 0.000
686.5 0.000
687.0 0.000
687.5 0.000
688.0 0.000
688.5 0.000
689.0 0.000
689.5 0.000
690.0 0.000
690.5 0.000
691.0 0.000
691.5 0.000
692.0 0.000
692.5 0.000
693.0 0.000
693.5 0.000
694.0 0.000
694.5 0.000
695.0 0.000
695.5 0.000
696.0 0.000
696.5 0.000
697.0 0.000
697.5 0.000
698.0 0.000
698.5 0.000
699.0 0.000
699.5 0.000
700.0 0.000
700.5 0.000
701.0 0.000
701.5 0.000
702.0 0.000
702.5 0.000
703.0 0.000
703.5 0.000
704.0 0.000
704.5 0.000
705.0 0.000
705.5 0.000
706.0 0.000
706.5 0.000
707.0 0.000
707.5 0.000
708.0 0.000
708.5 0.000
709.0 0.000
709.5 0.000
710.0 0.000
710.5 0.000
711.0 0.000
711.5 0.000
712.0 0.000
712.5 0.000
713.0 0.000
713.5 0.000
714.0 0.000
714.5 0.000
715.0 0.000
715.5 0.000
716.0 0.001
716.5 0.001
717.0 0.002
717.5 0.003
718.0 0.004
718.5 0.006
719.0 0.007
719.5 0.009
720.0 0.010
720.5 0.011
721.0 0.015
721.5 0.015
722.0 0.016
722.5 0.018
723.0 0.020
723.5 0.022
724.0 0.023
724.5 0.026
725.0 0.028
725.5 0.028
726.0 0.031
726.5 0.032
727.0 0.035
727.5 0.037
728.0 0.038
728.5 0.038
729.0 0.040
729.5 0.041
730.0 0.043
730.5 0.044
731.0 0.046
731.5 0.046
732.0 0.048
732.5 0.049
733.0 0.049
733.5 0.048
734.0 0.049
734.5 0.051
735.0 0.052
735.5 0.052
736.0 0.054
736.5 0.055
737.0 0.057
737.5 0.058
738.0 0.057
738.5 0.058
739.0 0.058
739.5 0.059
740.0 0.060
740.5 0.061
741.0 0.063
741.5 0.063
742.0 0.065
742.5 0.065
743.0 0.064
743.5 0.065
744.0 0.064
744.5 0.066
745.0 0.068
745.5 0.068
746.0 0.069
746.5 0.068
747.0 0.067
747.5 0.069
748.0 0.066
748.5 0.067
749.0 0.066
749.5 0.065
750.0 0.065
750.5 0.064
751.0 0.066
751.5 0.066
752.0 0.064
752.5 0.065
753.0 0.065
753.5 0.067
754.0 0.068
754.5 0.067
755.0 0.066
755.5 0.065
756.0 0.066
756.5 0.066
757.0 0.065
757.5 0.066
758.0 0.064
758.5 0.063
759.0 0.063
759.5 0.063
760.0 0.064
760.5 0.061
761.0 0.060
761.5 0.060
762.0 0.058
762.5 0.056
763.0 0.056
763.5 0.053
764.0 0.052
764.5 0.052
765.0 0.050
765.5 0.051
766.0 0.050
766.5 0.048
767.0 0.048
767.5 0.048
768.0 0.047
768.5 0.045
769.0 0.046
769.5 0.046
770.0 0.044
770.5 0.044
771.0 0.044
771.5 0.042
772.0 0.043
772.5 0.042
773.0 0.043
773.5 0.045
774.0 0.045
774.5 0.046
775.0 0.046
775.5 0.045
776.0 0.047
776.5 0.047
777.0 0.049
777.5 0.050
778.0 0.049
778.5 0.050
779.0 0.052
779.5 0.052
780.0 0.053
780.5 0.052
781.0 0.053
781.5 0.054
782.0 0.054
782.5 0.054
783.0 0.053
783.5 0.053
784.0 0.056
784.5 0.055
785.0 0.054
785.5 0.051
786.0 0.050
786.5 0.051
787.0 0.048
787.5 0.049
788.0 0.049
788.5 0.048
789.0 0.047
789.5 0.045
790.0 0.044
790.5 0.043
791.0 0.044
791.5 0.046
792.0 0.044
792.5 0.043
793.0 0.042
793.5 0.042
794.0 0.042
794.5 0.040
795.0 0.038
795.5 0.039
796.0 0.037
796.5 0.037
797.0 0.035
797.5 0.034
798.0 0.036
798.5 0.035
799.0 0.034
799.5 0.034
800.0 0.033
##END=
